* This data was exported from the Dayton Audio Test System: DATS
*
D    	0	[mm]
Re   	5.743	[Ohms]
Fs   	394.3	[Hz]
Zm   	23.35	[Ohms]
BL   	0	[N/A]
Qms  	4.27
Qes  	1.393
Qts  	1.05
Vas  	0 	[liters]
L10k 	0.1171	[mH]
n0   	0	[%]
dBSPL  	0	[1W/1m]
Ms   	0	[grams]
Cms  	0	[mm/N]
*
*
Freq            Impedance       Phase
1.029    	6.103    	-1.833    
1.059    	6.103    	-1.833    
1.091    	6.103    	-1.833    
1.122    	6.103    	-1.833    
1.155    	6.103    	-1.833    
1.189    	6.103    	-1.833    
1.224    	6.103    	-1.833    
1.260    	6.103    	-1.833    
1.297    	6.103    	-1.833    
1.335    	5.873    	-0.299    
1.374    	5.873    	-0.299    
1.414    	5.873    	-0.299    
1.456    	5.873    	-0.299    
1.498    	5.873    	-0.299    
1.542    	5.873    	-0.299    
1.587    	5.873    	-0.299    
1.634    	5.873    	-0.299    
1.682    	5.873    	-0.299    
1.731    	5.873    	-0.299    
1.782    	5.873    	-0.299    
1.834    	5.873    	-0.299    
1.888    	5.873    	-0.299    
1.943    	5.873    	-0.299    
2.000    	5.760    	0.542    
2.059    	5.760    	0.542    
2.119    	5.760    	0.542    
2.181    	5.760    	0.542    
2.245    	5.760    	0.542    
2.311    	5.760    	0.542    
2.378    	5.760    	0.542    
2.448    	5.760    	0.542    
2.520    	5.760    	0.542    
2.594    	5.760    	0.542    
2.670    	5.746    	0.337    
2.748    	5.746    	0.337    
2.828    	5.746    	0.337    
2.911    	5.746    	0.337    
2.997    	5.746    	0.337    
3.084    	5.746    	0.337    
3.175    	5.746    	0.337    
3.268    	5.746    	0.337    
3.364    	5.752    	0.522    
3.462    	5.752    	0.522    
3.564    	5.752    	0.522    
3.668    	5.752    	0.522    
3.775    	5.752    	0.522    
3.886    	5.752    	0.522    
4.000    	5.746    	0.466    
4.117    	5.746    	0.466    
4.238    	5.746    	0.466    
4.362    	5.746    	0.466    
4.490    	5.746    	0.466    
4.621    	5.746    	0.466    
4.757    	5.753    	0.588    
4.896    	5.753    	0.588    
5.040    	5.753    	0.588    
5.187    	5.753    	0.588    
5.339    	5.751    	0.617    
5.496    	5.751    	0.617    
5.657    	5.751    	0.617    
5.823    	5.751    	0.617    
5.993    	5.754    	0.723    
6.169    	5.754    	0.723    
6.350    	5.754    	0.723    
6.536    	5.754    	0.723    
6.727    	5.753    	0.773    
6.924    	5.753    	0.773    
7.127    	5.753    	0.773    
7.336    	5.755    	0.879    
7.551    	5.755    	0.879    
7.772    	5.755    	0.879    
8.000    	5.754    	0.942    
8.234    	5.754    	0.942    
8.476    	5.754    	0.942    
8.724    	5.756    	1.053    
8.980    	5.756    	1.053    
9.243    	5.756    	1.053    
9.514    	5.755    	1.101    
9.792    	5.755    	1.101    
10.079    	5.758    	1.188    
10.375    	5.758    	1.188    
10.679    	5.755    	1.228    
10.992    	5.755    	1.228    
11.314    	5.760    	1.338    
11.645    	5.760    	1.338    
11.986    	5.759    	1.388    
12.338    	5.759    	1.388    
12.699    	5.762    	1.510    
13.071    	5.762    	1.510    
13.454    	5.761    	1.554    
13.849    	5.761    	1.554    
14.254    	5.761    	1.665    
14.672    	5.762    	1.700    
15.102    	5.762    	1.700    
15.545    	5.760    	1.800    
16.000    	5.764    	1.843    
16.469    	5.764    	1.843    
16.951    	5.762    	1.928    
17.448    	5.768    	1.986    
17.959    	5.764    	2.063    
18.486    	5.764    	2.063    
19.027    	5.768    	2.165    
19.585    	5.765    	2.279    
20.159    	5.765    	2.297    
20.749    	5.767    	2.389    
21.357    	5.766    	2.434    
21.983    	5.768    	2.537    
22.627    	5.769    	2.590    
23.290    	5.769    	2.685    
23.973    	5.771    	2.752    
24.675    	5.770    	2.841    
25.398    	5.774    	2.901    
26.143    	5.772    	2.990    
26.909    	5.775    	3.087    
27.697    	5.775    	3.142    
28.509    	5.777    	3.232    
29.344    	5.777    	3.333    
30.204    	5.781    	3.425    
31.089    	5.780    	3.520    
32.000    	5.783    	3.634    
32.938    	5.786    	3.758    
33.903    	5.787    	3.869    
34.896    	5.790    	3.980    
35.919    	5.793    	4.101    
36.971    	5.795    	4.220    
38.055    	5.795    	4.346    
39.170    	5.798    	4.489    
40.317    	5.798    	4.583    
41.499    	5.800    	4.702    
42.715    	5.803    	4.859    
43.967    	5.806    	5.040    
45.255    	5.809    	5.191    
46.581    	5.813    	5.347    
47.946    	5.815    	5.480    
49.351    	5.818    	5.614    
50.797    	5.823    	5.753    
52.285    	5.827    	5.896    
53.817    	5.831    	6.086    
55.394    	5.834    	6.292    
57.018    	5.838    	6.445    
58.688    	5.846    	6.656    
60.408    	5.851    	6.842    
62.178    	5.856    	7.035    
64.000    	5.860    	7.226    
65.875    	5.866    	7.449    
67.806    	5.873    	7.674    
69.792    	5.879    	7.902    
71.838    	5.885    	8.136    
73.943    	5.890    	8.368    
76.109    	5.899    	8.610    
78.339    	5.910    	8.900    
80.635    	5.918    	9.127    
82.998    	5.927    	9.404    
85.430    	5.936    	9.678    
87.933    	5.946    	9.970    
90.510    	5.958    	10.289    
93.162    	5.971    	10.600    
95.892    	5.985    	10.933    
98.701    	5.997    	11.222    
101.594    	6.011    	11.555    
104.571    	6.026    	11.911    
107.635    	6.041    	12.271    
110.789    	6.060    	12.657    
114.035    	6.078    	13.014    
117.377    	6.098    	13.405    
120.816    	6.118    	13.801    
124.356    	6.141    	14.251    
128.000    	6.164    	14.665    
131.751    	6.189    	15.125    
135.611    	6.220    	15.654    
139.585    	6.249    	16.117    
143.675    	6.282    	16.623    
147.885    	6.317    	17.142    
152.219    	6.358    	17.728    
156.679    	6.405    	18.354    
161.270    	6.449    	18.936    
165.995    	6.498    	19.555    
170.860    	6.552    	20.192    
175.866    	6.615    	20.897    
181.019    	6.677    	21.546    
186.324    	6.746    	22.247    
191.783    	6.833    	23.087    
197.403    	6.922    	23.881    
203.187    	7.017    	24.666    
209.141    	7.133    	25.544    
215.269    	7.257    	26.425    
221.577    	7.389    	27.300    
228.070    	7.543    	28.251    
234.753    	7.715    	29.218    
241.632    	7.912    	30.216    
248.712    	8.148    	31.270    
256.000    	8.407    	32.288    
263.501    	8.720    	33.340    
271.223    	9.097    	34.416    
279.170    	9.502    	35.345    
287.350    	10.043    	36.291    
295.770    	10.661    	37.044    
304.437    	11.389    	37.553    
313.358    	12.346    	37.720    
322.540    	13.504    	37.298    
331.991    	14.940    	36.021    
341.719    	16.601    	33.579    
351.732    	18.538    	29.400    
362.039    	20.350    	23.685    
372.647    	21.892    	16.333    
383.567    	22.924    	7.808    
394.806    	23.306    	-1.494    
406.375    	22.754    	-11.160    
418.282    	21.240    	-19.871    
430.539    	19.047    	-26.857    
443.155    	16.872    	-31.322    
456.140    	15.056    	-33.904    
469.506    	13.538    	-35.248    
483.264    	12.269    	-35.583    
497.424    	11.270    	-35.244    
512.000    	10.474    	-34.561    
527.003    	9.800    	-33.594    
542.445    	9.249    	-32.341    
558.340    	8.816    	-31.041    
574.701    	8.437    	-29.838    
591.541    	8.093    	-28.622    
608.874    	7.796    	-27.233    
626.715    	7.550    	-25.760    
645.080    	7.344    	-24.299    
663.982    	7.174    	-22.871    
683.438    	7.031    	-21.529    
703.464    	6.910    	-20.269    
724.077    	6.805    	-19.053    
745.294    	6.713    	-17.868    
767.133    	6.633    	-16.709    
789.612    	6.563    	-15.601    
812.749    	6.505    	-14.534    
836.565    	6.454    	-13.533    
861.078    	6.407    	-12.574    
886.309    	6.365    	-11.622    
912.280    	6.330    	-10.673    
939.012    	6.304    	-9.766    
966.527    	6.282    	-8.910    
994.849    	6.264    	-8.090    
1024.000    	6.249    	-7.285    
1054.005    	6.237    	-6.474    
1084.890    	6.230    	-5.701    
1116.680    	6.225    	-4.962    
1149.401    	6.222    	-4.237    
1183.081    	6.221    	-3.520    
1217.748    	6.223    	-2.817    
1253.431    	6.228    	-2.124    
1290.159    	6.236    	-1.429    
1327.964    	6.247    	-0.744    
1366.876    	6.262    	-0.091    
1406.929    	6.279    	0.566    
1448.155    	6.302    	1.229    
1490.589    	6.330    	1.885    
1534.266    	6.366    	2.532    
1579.224    	6.411    	3.160    
1625.499    	6.470    	3.748    
1673.129    	6.545    	4.234    
1722.156    	6.638    	4.517    
1772.619    	6.737    	4.473    
1824.561    	6.812    	4.018    
1878.024    	6.821    	3.304    
1933.055    	6.755    	2.786    
1989.697    	6.655    	2.791    
2048.000    	6.569    	3.247    
2108.011    	6.514    	3.930    
2169.780    	6.486    	4.682    
2233.360    	6.477    	5.440    
2298.802    	6.481    	6.176    
2366.162    	6.497    	6.880    
2435.496    	6.519    	7.551    
2506.862    	6.544    	8.181    
2580.318    	6.576    	8.796    
2655.927    	6.613    	9.402    
2733.752    	6.660    	9.983    
2813.857    	6.717    	10.501    
2896.309    	6.783    	10.865    
2981.178    	6.835    	11.021    
3068.533    	6.857    	11.162    
3158.448    	6.863    	11.499    
3250.997    	6.878    	11.986    
3346.259    	6.910    	12.512    
3444.312    	6.953    	12.983    
3545.238    	6.998    	13.392    
3649.121    	7.035    	13.786    
3756.049    	7.072    	14.235    
3866.109    	7.117    	14.722    
3979.395    	7.173    	15.177    
4096.000    	7.234    	15.580    
4216.022    	7.296    	15.923    
4339.561    	7.351    	16.232    
4466.720    	7.404    	16.538    
4597.605    	7.455    	16.855    
4732.325    	7.510    	17.200    
4870.992    	7.574    	17.547    
5013.723    	7.639    	17.806    
5160.637    	7.696    	18.020    
5311.855    	7.749    	18.280    
5467.504    	7.807    	18.558    
5627.714    	7.865    	18.791    
5792.619    	7.914    	19.012    
5962.355    	7.957    	19.283    
6137.066    	8.004    	19.631    
6316.896    	8.062    	19.999    
6501.995    	8.129    	20.330    
6692.518    	8.195    	20.608    
6888.623    	8.255    	20.853    
7090.476    	8.307    	21.118    
7298.242    	8.361    	21.455    
7512.097    	8.427    	21.836    
7732.218    	8.501    	22.163    
7958.790    	8.570    	22.454    
8192.000    	8.636    	22.766    
8432.044    	8.710    	23.086    
8679.122    	8.786    	23.390    
8933.439    	8.861    	23.694    
9195.209    	8.938    	24.008    
9464.649    	9.017    	24.332    
9741.985    	9.099    	24.650    
10027.447    	9.185    	24.955    
10321.273    	9.274    	25.245    
10623.710    	9.363    	25.533    
10935.008    	9.454    	25.824    
11255.428    	9.548    	26.108    
11585.238    	9.645    	26.379    
11924.711    	9.743    	26.633    
12274.132    	9.842    	26.872    
12633.791    	9.942    	27.103    
13003.989    	10.042    	27.337    
13385.035    	10.143    	27.563    
13777.247    	10.242    	27.786    
14180.951    	10.343    	28.014    
14596.485    	10.445    	28.244    
15024.194    	10.550    	28.469    
15464.437    	10.657    	28.687    
15917.579    	10.764    	28.913    
16384.000    	10.871    	29.135    
16864.088    	10.980    	29.354    
17358.243    	11.095    	29.568    
17866.879    	11.212    	29.761    
18390.418    	11.324    	29.937    
18929.299    	11.432    	30.117    
19483.969    	11.536    	30.314    
20054.893    	11.642    	30.543    
20642.546    	11.752    	31.010    
